Date,Open,High,Low,Close,Adj Close,Volume
2020-01-02,115.5,116.4800033569336,112.93000030517578,113.68000030517578,112.28177642822266,362700
2020-01-03,112.80999755859375,114.83999633789062,112.80999755859375,114.04000091552734,112.63735961914062,221500
2020-01-06,113.66000366210938,114.48999786376953,113.55999755859375,114.05000305175781,112.6472396850586,282400
2020-01-07,113.55999755859375,114.01000213623047,112.73999786376953,112.91000366210938,111.52125549316406,234700
2020-01-08,113.08000183105469,114.18000030517578,113.08000183105469,113.22000122070312,111.82743835449219,331000
2020-01-09,113.7699966430664,115.05999755859375,113.31999969482422,114.66000366210938,113.2497329711914,329100
2020-01-10,114.66000366210938,116.16999816894531,114.56999969482422,115.79000091552734,114.36582946777344,196800
2020-01-13,115.48999786376953,116.55999755859375,115.37000274658203,116.19999694824219,114.77078247070312,248500
2020-01-14,116.25,116.31999969482422,115.13999938964844,116.12999725341797,114.70164489746094,160800
2020-01-15,116.31999969482422,117.2300033569336,115.9000015258789,116.70999908447266,115.27450561523438,241500
2020-01-16,117.20999908447266,118.2699966430664,117.18000030517578,118.22000122070312,116.76594543457031,187300
2020-01-17,118.30999755859375,118.61000061035156,117.05999755859375,117.31999969482422,115.87701416015625,190600
2020-01-21,116.66000366210938,116.7699966430664,115.3499984741211,115.62999725341797,114.20780181884766,189300
2020-01-22,115.69000244140625,116.43000030517578,115.4800033569336,115.66999816894531,114.24729919433594,141800
2020-01-23,115.33000183105469,119.0199966430664,114.7699966430664,117.37000274658203,115.92639923095703,301000
2020-01-24,117.4000015258789,118.16000366210938,116.62000274658203,117.12000274658203,115.67947387695312,213000
2020-01-27,115.54000091552734,117.26000213623047,115.22000122070312,116.48999786376953,115.05720520019531,239100
2020-01-28,116.41000366210938,116.58000183105469,115.56999969482422,115.97000122070312,114.89869689941406,178600
2020-01-29,115.91000366210938,117.08000183105469,115.52999877929688,115.94000244140625,114.86898040771484,211200
2020-01-30,115.0199966430664,117.01000213623047,114.33000183105469,116.54000091552734,115.46343231201172,153200
2020-01-31,115.91000366210938,116.38999938964844,115.13999938964844,115.51000213623047,114.44293975830078,300700
2020-02-03,115.61000061035156,117.54000091552734,115.51000213623047,117.23999786376953,116.15695190429688,271300
2020-02-04,117.79000091552734,118.48999786376953,116.19999694824219,116.94999694824219,115.86963653564453,313700
2020-02-05,117.13999938964844,118.29000091552734,116.75,117.87000274658203,116.78113555908203,188100
2020-02-06,118.05000305175781,118.94999694824219,117.45999908447266,117.52999877929688,116.44427490234375,247800
2020-02-07,117.06999969482422,117.68000030517578,116.22000122070312,116.69999694824219,115.62194061279297,144500
2020-02-10,116.41999816894531,117.0999984741211,115.4800033569336,115.80000305175781,114.73026275634766,142600
2020-02-11,116.0199966430664,116.88999938964844,115.4000015258789,116.05000305175781,114.97796630859375,197600
2020-02-12,116.12999725341797,116.20999908447266,114.30000305175781,114.70999908447266,113.65033721923828,448200
2020-02-13,114.58000183105469,116.55000305175781,113.69000244140625,116.19999694824219,115.1265640258789,200400
2020-02-14,116.5999984741211,117.75,116.16999816894531,116.66999816894531,115.59222412109375,216800
2020-02-18,116.47000122070312,116.62999725341797,115.08000183105469,115.26000213623047,114.19525909423828,271300
2020-02-19,115.37000274658203,116.62000274658203,114.72000122070312,115.01000213623047,113.94755554199219,289200
2020-02-20,114.61000061035156,115.66999816894531,113.73999786376953,114.93000030517578,113.86830139160156,378400
2020-02-21,111.5199966430664,114.6500015258789,109.16000366210938,111.9800033569336,110.945556640625,720600
2020-02-24,110.5,111.20999908447266,109.16999816894531,109.20999908447266,108.20114135742188,447900
2020-02-25,109.22000122070312,109.56999969482422,106.70999908447266,106.94000244140625,105.95211029052734,641400
2020-02-26,104.0,106.55999755859375,102.7699966430664,104.68000030517578,103.7129898071289,504500
2020-02-27,103.4000015258789,104.76000213623047,101.94999694824219,102.4000015258789,101.45404815673828,670500
2020-02-28,99.7300033569336,102.20999908447266,99.31999969482422,101.06999969482422,100.1363296508789,690800
2020-03-02,101.62000274658203,103.76000213623047,100.80999755859375,103.58000183105469,102.6231460571289,331800
2020-03-03,103.79000091552734,105.72000122070312,102.19999694824219,102.76000213623047,101.81072235107422,353300
2020-03-04,105.38999938964844,107.62999725341797,104.44000244140625,107.44000244140625,106.4474868774414,294500
2020-03-05,105.33999633789062,105.80000305175781,102.63999938964844,103.9800033569336,103.01945495605469,273800
2020-03-06,101.61000061035156,107.41000366210938,101.33000183105469,107.30000305175781,106.30879211425781,624000
2020-03-09,102.73999786376953,105.0,99.4800033569336,101.44999694824219,100.51282501220703,597100
2020-03-10,103.5999984741211,103.98999786376953,99.38999938964844,103.98999786376953,103.02935791015625,522300
2020-03-11,101.66999816894531,101.66999816894531,97.91999816894531,99.08000183105469,98.16472625732422,705800
2020-03-12,92.4800033569336,96.4000015258789,87.5,94.4000015258789,93.5279541015625,843100
2020-03-13,98.08000183105469,99.44000244140625,91.12000274658203,96.38999938964844,95.49956512451172,596000
2020-03-16,87.4000015258789,94.4800033569336,87.4000015258789,87.87999725341797,87.06817626953125,667400
2020-03-17,89.94999694824219,96.94999694824219,89.4800033569336,96.44999694824219,95.55901336669922,595700
2020-03-18,91.69000244140625,96.9800033569336,90.33999633789062,96.75,95.85624694824219,762000
2020-03-19,96.48999786376953,101.22000122070312,93.58999633789062,98.87999725341797,97.96656036376953,354700
2020-03-20,98.80999755859375,99.9800033569336,89.12999725341797,92.51000213623047,91.6554183959961,727300
2020-03-23,92.05999755859375,93.23999786376953,79.83999633789062,83.93000030517578,83.15467071533203,698800
2020-03-24,87.2699966430664,88.31999969482422,82.69000244140625,88.05999755859375,87.24652099609375,535600
2020-03-25,89.0,93.66000366210938,86.22000122070312,90.18000030517578,89.34693145751953,576200
2020-03-26,90.8499984741211,97.33999633789062,90.22000122070312,96.19999694824219,95.31132507324219,447000
2020-03-27,94.54000091552734,95.83999633789062,92.0999984741211,94.0,93.13164520263672,482000
2020-03-30,94.97000122070312,100.95999908447266,94.37000274658203,100.4800033569336,99.55178833007812,435400
2020-03-31,100.5199966430664,102.75,97.44000244140625,99.54000091552734,98.62046813964844,531000
2020-04-01,97.70999908447266,98.68000030517578,95.44000244140625,96.20999908447266,95.32123565673828,296500
2020-04-02,95.80999755859375,97.13999938964844,94.12000274658203,96.1500015258789,95.26178741455078,455700
2020-04-03,94.87999725341797,97.41999816894531,93.36000061035156,94.19000244140625,93.31989288330078,370300
2020-04-06,97.06999969482422,101.18000030517578,97.06999969482422,100.76000213623047,99.82920837402344,503200
2020-04-07,103.55000305175781,103.55000305175781,99.22000122070312,101.12000274658203,100.18587493896484,378000
2020-04-08,102.6500015258789,105.29000091552734,100.63999938964844,104.11000061035156,103.14825439453125,328500
2020-04-09,105.04000091552734,108.02999877929688,104.2300033569336,107.2699966430664,106.27906036376953,399300
2020-04-13,106.98999786376953,107.43000030517578,102.30000305175781,102.3499984741211,101.40451049804688,234000
2020-04-14,104.55999755859375,105.37000274658203,103.36000061035156,104.0199966430664,103.05907440185547,239700
2020-04-15,102.27999877929688,104.19000244140625,100.61000061035156,100.93000030517578,99.99763488769531,441400
2020-04-16,103.02999877929688,103.02999877929688,99.68000030517578,101.8499984741211,100.90912628173828,294000
2020-04-17,103.86000061035156,105.0199966430664,102.4000015258789,102.94000244140625,101.98906707763672,256200
2020-04-20,101.86000061035156,107.94000244140625,101.12999725341797,106.94000244140625,105.95211029052734,856400
2020-04-21,105.8499984741211,106.98999786376953,104.12000274658203,106.12000274658203,105.13969421386719,475500
2020-04-22,106.98999786376953,107.04000091552734,104.12000274658203,106.30000305175781,105.31802368164062,436400
2020-04-23,106.62000274658203,107.31999969482422,104.94999694824219,105.0199966430664,104.04984283447266,347600
2020-04-24,105.41000366210938,105.41000366210938,103.08999633789062,104.12000274658203,103.15816497802734,377000
2020-04-27,109.33000183105469,114.0999984741211,106.87999725341797,112.58000183105469,111.5400161743164,457700
2020-04-28,112.5999984741211,114.66000366210938,110.98999786376953,111.18000030517578,110.50630950927734,274600
2020-04-29,112.55999755859375,113.62999725341797,109.81999969482422,110.08000183105469,109.41297912597656,236600
2020-04-30,108.98999786376953,110.06999969482422,106.33999633789062,107.08000183105469,106.43115997314453,730600
2020-05-01,110.55999755859375,110.55999755859375,104.70999908447266,106.13999938964844,105.49685668945312,506200
2020-05-04,105.52999877929688,107.33000183105469,105.08000183105469,106.80999755859375,106.16278839111328,324300
2020-05-05,106.77999877929688,107.62999725341797,105.4000015258789,105.55999755859375,104.92036437988281,332500
2020-05-06,106.7699966430664,107.05000305175781,104.76000213623047,104.86000061035156,104.224609375,234000
2020-05-07,105.5199966430664,106.88999938964844,105.13999938964844,105.47000122070312,104.83091735839844,285200
2020-05-08,106.9800033569336,107.98999786376953,106.55999755859375,107.52999877929688,106.87842559814453,259700
2020-05-11,106.66000366210938,107.51000213623047,106.08000183105469,106.30999755859375,105.66581726074219,344000
2020-05-12,106.43000030517578,106.43000030517578,103.8499984741211,103.94999694824219,103.32011413574219,233300
2020-05-13,103.38999938964844,103.38999938964844,101.6500015258789,102.41999816894531,101.79939270019531,267100
2020-05-14,101.01000213623047,102.62000274658203,99.11000061035156,102.45999908447266,101.83914947509766,246200
2020-05-15,101.47000122070312,101.69999694824219,100.05000305175781,101.5,100.88497161865234,476400
2020-05-18,104.06999969482422,105.1500015258789,102.94999694824219,104.1500015258789,103.51891326904297,304500
2020-05-19,103.79000091552734,105.75,103.16000366210938,103.7300033569336,103.1014633178711,214700
2020-05-20,104.44999694824219,105.5199966430664,104.08000183105469,104.41000366210938,103.77734375,146200
2020-05-21,104.44000244140625,105.70999908447266,104.44000244140625,105.08999633789062,104.45320892333984,233900
2020-05-22,104.97000122070312,105.25,103.70999908447266,105.0999984741211,104.46315002441406,151200
2020-05-26,107.33999633789062,110.19000244140625,106.77999877929688,109.55000305175781,108.88619232177734,332200
2020-05-27,111.06999969482422,112.6500015258789,110.3499984741211,112.55000305175781,111.8680191040039,290400
2020-05-28,113.33000183105469,113.33000183105469,110.94000244140625,111.5999984741211,110.92376708984375,233600
2020-05-29,111.0999984741211,111.52999877929688,109.70999908447266,111.38999938964844,110.71504211425781,215300
2020-06-01,111.27999877929688,111.87999725341797,110.5999984741211,111.41999816894531,110.7448501586914,277000
2020-06-02,111.75,112.47000122070312,110.94000244140625,112.06999969482422,111.39091491699219,224900
2020-06-03,112.69999694824219,114.0999984741211,112.69999694824219,113.27999877929688,112.59358215332031,196600
2020-06-04,113.5,113.5,111.0199966430664,112.13999938964844,111.46049499511719,182500
2020-06-05,113.80000305175781,114.27999877929688,112.91000366210938,113.4000015258789,112.71286010742188,235500
2020-06-08,112.81999969482422,114.0,112.29000091552734,113.58000183105469,112.89176940917969,244700
2020-06-09,112.77999877929688,113.44999694824219,111.91000366210938,112.47000122070312,111.78849792480469,292100
2020-06-10,113.0,113.0,110.81999969482422,111.63999938964844,110.9635238647461,366600
2020-06-11,110.0,110.61000061035156,104.20999908447266,104.25,103.61830139160156,376900
2020-06-12,106.69000244140625,107.52999877929688,103.08000183105469,105.36000061035156,104.7215805053711,247300
2020-06-15,103.44000244140625,106.54000091552734,103.06999969482422,105.41000366210938,104.77127838134766,235900
2020-06-16,108.30000305175781,109.08999633789062,106.86000061035156,107.38999938964844,106.73927307128906,252600
2020-06-17,108.19000244140625,108.6500015258789,106.37000274658203,106.91000366210938,106.2621841430664,208800
2020-06-18,106.27999877929688,107.97000122070312,105.97000122070312,106.98999786376953,106.3416976928711,217800
2020-06-19,107.20999908447266,107.98999786376953,106.0999984741211,107.5999984741211,106.94800567626953,303700
2020-06-22,106.94000244140625,107.66999816894531,105.5,107.55000305175781,106.89830780029297,241900
2020-06-23,108.45999908447266,108.45999908447266,106.91999816894531,107.44000244140625,106.78897094726562,228300
2020-06-24,106.58000183105469,107.5199966430664,105.8499984741211,105.94000244140625,105.29806518554688,433900
2020-06-25,105.41000366210938,107.62999725341797,103.77999877929688,107.5999984741211,106.94800567626953,263600
2020-06-26,107.12000274658203,108.69000244140625,106.16999816894531,107.72000122070312,107.06727600097656,924200
2020-06-29,108.23999786376953,110.19000244140625,107.88999938964844,109.25,108.58800506591797,189300
2020-06-30,109.12999725341797,112.27999877929688,109.12999725341797,111.9800033569336,111.30146789550781,421800
2020-07-01,111.91000366210938,112.66999816894531,110.94999694824219,112.4800033569336,111.7984390258789,247900
2020-07-02,113.44000244140625,115.01000213623047,113.44000244140625,114.97000122070312,114.27334594726562,271400
2020-07-06,115.98999786376953,116.66000366210938,114.18000030517578,115.26000213623047,114.56159210205078,330900
2020-07-07,114.63999938964844,116.0,114.18000030517578,115.1500015258789,114.45225524902344,346500
2020-07-08,114.79000091552734,115.75,112.58999633789062,112.93000030517578,112.2457046508789,205900
2020-07-09,113.16000366210938,114.13999938964844,111.41000366210938,113.76000213623047,113.0706787109375,307200
2020-07-10,114.16999816894531,115.16999816894531,112.4000015258789,114.94999694824219,114.25346374511719,244500
2020-07-13,114.95999908447266,116.2699966430664,113.2699966430664,113.43000030517578,112.74267578125,289000
2020-07-14,113.76000213623047,116.5,113.69000244140625,116.30999755859375,115.605224609375,193600
2020-07-15,117.44000244140625,118.29000091552734,116.54000091552734,117.9000015258789,117.18559265136719,326900
2020-07-16,118.04000091552734,118.48999786376953,116.80000305175781,117.23999786376953,116.52958679199219,252900
2020-07-17,118.0,119.70999908447266,117.33999633789062,119.4000015258789,118.67650604248047,249000
2020-07-20,119.4000015258789,119.75,118.2699966430664,119.29000091552734,118.56716918945312,183200
2020-07-21,119.58000183105469,119.87000274658203,117.66999816894531,118.18000030517578,117.46389770507812,394300
2020-07-22,118.25,118.9800033569336,117.41000366210938,118.5,117.78195190429688,414600
2020-07-23,118.38999938964844,119.2300033569336,118.08999633789062,118.44000244140625,117.72232055664062,286700
2020-07-24,119.0,119.79000091552734,118.37999725341797,118.8499984741211,118.12983703613281,244700
2020-07-27,118.83000183105469,120.44999694824219,118.5,119.8499984741211,119.12377166748047,281800
2020-07-28,119.80999755859375,119.80999755859375,117.77999877929688,118.05000305175781,117.68819427490234,208600
2020-07-29,118.72000122070312,119.41000366210938,117.33000183105469,118.80999755859375,118.44586181640625,251200
2020-07-30,117.75,118.91000366210938,116.69999694824219,117.91000366210938,117.54862213134766,359800
2020-07-31,115.0,117.9000015258789,111.22000122070312,115.19999694824219,114.846923828125,668100
2020-08-03,116.8499984741211,119.68000030517578,114.8499984741211,118.66000366210938,118.29632568359375,292900
2020-08-04,118.94999694824219,120.18000030517578,118.22000122070312,118.62000274658203,118.2564468383789,233100
2020-08-05,119.55999755859375,120.66999816894531,118.22000122070312,118.36000061035156,117.99724578857422,164700
2020-08-06,118.81999969482422,120.11000061035156,116.68000030517578,117.66000366210938,117.29939270019531,246500
2020-08-07,117.06999969482422,119.37000274658203,116.77999877929688,119.25,118.88451385498047,202300
2020-08-10,119.58000183105469,119.58000183105469,116.9000015258789,117.0,116.64141082763672,204700
2020-08-11,118.0199966430664,119.3499984741211,116.52999877929688,116.73999786376953,116.3822021484375,214100
2020-08-12,116.91999816894531,118.56999969482422,116.75,118.08999633789062,117.72806549072266,171800
2020-08-13,117.23999786376953,119.47000122070312,117.23999786376953,118.5199966430664,118.15674591064453,213800
2020-08-14,117.87999725341797,119.63999938964844,117.69999694824219,118.48999786376953,118.12683868408203,134600
2020-08-17,119.13999938964844,119.91999816894531,118.01000213623047,118.25,117.88758087158203,160500
2020-08-18,117.91000366210938,118.63999938964844,116.7699966430664,117.87999725341797,117.51870727539062,171500
2020-08-19,118.69999694824219,119.37000274658203,117.31999969482422,117.69000244140625,117.32929992675781,145600
2020-08-20,117.05999755859375,118.12999725341797,116.5999984741211,117.55000305175781,117.18972778320312,159400
2020-08-21,117.12000274658203,118.3499984741211,116.4000015258789,117.80000305175781,117.43896484375,199200
2020-08-24,118.19999694824219,119.76000213623047,118.19999694824219,119.11000061035156,118.74494171142578,224000
2020-08-25,119.54000091552734,119.54000091552734,117.93000030517578,118.12999725341797,117.7679443359375,114400
2020-08-26,117.98999786376953,119.0,117.55999755859375,118.5999984741211,118.23650360107422,120000
2020-08-27,118.62999725341797,120.62000274658203,118.5,120.05000305175781,119.68206787109375,209800
2020-08-28,119.69999694824219,119.69999694824219,118.0,118.12999725341797,117.7679443359375,295200
2020-08-31,118.58000183105469,119.16000366210938,117.77999877929688,118.38999938964844,118.02715301513672,182500
2020-09-01,117.94000244140625,119.63999938964844,117.94000244140625,119.5,119.13375091552734,133900
2020-09-02,119.75,122.44000244140625,118.97000122070312,122.26000213623047,121.88529205322266,153800
2020-09-03,122.27999877929688,122.27999877929688,118.5,119.16999816894531,118.80475616455078,227200
2020-09-04,120.04000091552734,120.30000305175781,116.48999786376953,118.72000122070312,118.35614013671875,224200
2020-09-08,118.12999725341797,118.12999725341797,116.04000091552734,116.05999755859375,115.70429229736328,164600
2020-09-09,116.63999938964844,118.62999725341797,116.63999938964844,117.88999938964844,117.52867889404297,154000
2020-09-10,118.16999816894531,118.91000366210938,116.70999908447266,117.19000244140625,116.8308334350586,253500
2020-09-11,117.87999725341797,118.70999908447266,117.12999725341797,118.36000061035156,117.99724578857422,124600
2020-09-14,119.37000274658203,120.05999755859375,118.47000122070312,119.08000183105469,118.71503448486328,129000
2020-09-15,119.44000244140625,119.80000305175781,118.12000274658203,118.33000183105469,117.96733856201172,125600
2020-09-16,119.58000183105469,119.58000183105469,117.56999969482422,117.7699966430664,117.40904998779297,232000
2020-09-17,116.5,117.23999786376953,115.08000183105469,115.95999908447266,115.60459899902344,354500
2020-09-18,116.58000183105469,116.75,114.2300033569336,115.04000091552734,114.68741607666016,555700
2020-09-21,113.5999984741211,114.04000091552734,111.81999969482422,113.44999694824219,113.10228729248047,251500
2020-09-22,113.97000122070312,114.66999816894531,113.55999755859375,114.33000183105469,113.9795913696289,292400
2020-09-23,114.19999694824219,114.52999877929688,111.70999908447266,112.13999938964844,111.79630279541016,172300
2020-09-24,111.9000015258789,113.16999816894531,111.16000366210938,112.26000213623047,111.91593933105469,274300
2020-09-25,111.45999908447266,112.58000183105469,111.45999908447266,112.0999984741211,111.75642395019531,254100
2020-09-28,113.16999816894531,114.22000122070312,112.04000091552734,112.36000061035156,112.01563262939453,230000
2020-09-29,112.05999755859375,113.3499984741211,111.75,112.62000274658203,112.27483367919922,230000
2020-09-30,113.2699966430664,114.05999755859375,112.5,113.19999694824219,112.8530502319336,200500
2020-10-01,113.44999694824219,114.97000122070312,113.13999938964844,113.69999694824219,113.35152435302734,166000
2020-10-02,112.30999755859375,114.18000030517578,112.30999755859375,112.8499984741211,112.5041275024414,166800
2020-10-05,113.36000061035156,114.93000030517578,113.20999908447266,114.55000305175781,114.19892120361328,151300
2020-10-06,115.01000213623047,115.9000015258789,113.91999816894531,114.55999755859375,114.2088851928711,224000
2020-10-07,115.08999633789062,116.16999816894531,114.5,114.9800033569336,114.62760162353516,173200
2020-10-08,115.80000305175781,116.79000091552734,115.5199966430664,116.5199966430664,116.16287994384766,138000
2020-10-09,118.12000274658203,118.38999938964844,116.19000244140625,116.80999755859375,116.45198822021484,148700
2020-10-12,117.05000305175781,118.83000183105469,116.69999694824219,118.04000091552734,117.67822265625,138100
2020-10-13,117.7300033569336,118.91000366210938,117.25,117.55999755859375,117.19969177246094,159000
2020-10-14,117.5,118.02999877929688,116.04000091552734,116.44000244140625,116.0831298828125,98900
2020-10-15,114.72000122070312,116.58999633789062,114.22000122070312,116.33999633789062,115.98342895507812,116900
2020-10-16,116.70999908447266,117.2300033569336,116.19000244140625,116.3499984741211,115.99340057373047,97700
2020-10-19,116.63999938964844,116.63999938964844,114.58000183105469,115.1500015258789,114.79708099365234,113700
2020-10-20,116.05000305175781,117.55999755859375,115.22000122070312,116.95999908447266,116.60153198242188,192600
2020-10-21,117.2699966430664,118.76000213623047,117.2699966430664,117.73999786376953,117.37914276123047,133700
2020-10-22,117.88999938964844,118.4800033569336,116.75,118.30999755859375,117.94739532470703,164100
2020-10-23,118.75,118.97000122070312,117.4800033569336,118.3499984741211,117.98727416992188,105600
2020-10-26,117.3499984741211,117.48999786376953,115.93000030517578,117.45999908447266,117.0999984741211,114100
2020-10-27,117.16999816894531,117.19000244140625,115.61000061035156,115.6500015258789,115.6500015258789,125000
2020-10-28,114.11000061035156,114.61000061035156,112.25,112.33999633789062,112.33999633789062,170500
2020-10-29,112.30000305175781,113.0999984741211,110.33999633789062,112.94000244140625,112.94000244140625,279100
2020-10-30,116.25,116.76000213623047,113.54000091552734,114.08999633789062,114.08999633789062,377900
2020-11-02,115.16999816894531,118.29000091552734,114.66999816894531,118.19000244140625,118.19000244140625,215600
2020-11-03,118.5,121.45999908447266,118.33000183105469,119.55999755859375,119.55999755859375,242400
2020-11-04,120.0,120.0199966430664,118.0999984741211,119.05000305175781,119.05000305175781,150600
2020-11-05,120.61000061035156,123.0999984741211,120.43000030517578,122.91000366210938,122.91000366210938,185500
2020-11-06,123.58999633789062,124.61000061035156,122.47000122070312,123.5999984741211,123.5999984741211,220300
2020-11-09,127.62000274658203,128.86000061035156,122.11000061035156,123.16999816894531,123.16999816894531,336500
2020-11-10,123.38999938964844,128.8000030517578,122.94999694824219,127.61000061035156,127.61000061035156,326100
2020-11-11,127.75,127.75,124.37000274658203,125.2699966430664,125.2699966430664,194700
2020-11-12,124.23999786376953,125.20999908447266,122.58999633789062,124.2699966430664,124.2699966430664,126300
2020-11-13,124.8499984741211,126.0,124.0999984741211,125.06999969482422,125.06999969482422,126300
2020-11-16,126.27999877929688,127.0,125.56999969482422,126.86000061035156,126.86000061035156,207400
2020-11-17,126.26000213623047,128.10000610351562,125.69999694824219,127.36000061035156,127.36000061035156,191200
2020-11-18,127.43000030517578,127.86000061035156,125.97000122070312,126.37000274658203,126.37000274658203,173100
2020-11-19,126.69999694824219,127.62000274658203,126.0,127.2300033569336,127.2300033569336,213900
2020-11-20,127.51000213623047,128.36000061035156,127.19000244140625,127.80999755859375,127.80999755859375,237300
2020-11-23,128.05999755859375,129.1199951171875,126.4000015258789,126.86000061035156,126.86000061035156,182300
2020-11-24,128.16000366210938,128.47000122070312,126.87999725341797,127.87999725341797,127.87999725341797,237200
2020-11-25,128.47999572753906,128.47999572753906,125.7699966430664,126.29000091552734,126.29000091552734,136100
2020-11-27,126.55000305175781,127.30000305175781,126.08000183105469,127.23999786376953,127.23999786376953,67800
2020-11-30,126.79000091552734,126.93000030517578,125.69000244140625,126.31999969482422,126.31999969482422,204600
2020-12-01,127.1500015258789,128.5800018310547,126.41999816894531,127.81999969482422,127.81999969482422,165800
2020-12-02,127.36000061035156,128.0500030517578,125.72000122070312,126.26000213623047,126.26000213623047,133800
2020-12-03,126.06999969482422,127.11000061035156,125.1500015258789,125.87000274658203,125.87000274658203,138700
2020-12-04,125.4800033569336,127.80000305175781,125.4800033569336,127.68000030517578,127.68000030517578,144600
2020-12-07,127.98999786376953,128.99000549316406,127.63999938964844,128.6300048828125,128.6300048828125,115000
2020-12-08,128.2899932861328,130.89999389648438,127.94000244140625,129.19000244140625,129.19000244140625,162100
2020-12-09,129.1300048828125,130.17999267578125,128.66000366210938,129.52999877929688,129.52999877929688,144800
2020-12-10,129.47000122070312,131.08999633789062,129.02000427246094,130.47000122070312,130.47000122070312,247100
2020-12-11,129.58999633789062,131.10000610351562,129.58999633789062,130.4499969482422,130.4499969482422,165800
2020-12-14,131.0500030517578,131.99000549316406,128.1999969482422,128.41000366210938,128.41000366210938,205800
2020-12-15,128.55999755859375,130.64999389648438,128.30999755859375,130.25999450683594,130.25999450683594,158200
2020-12-16,130.99000549316406,131.74000549316406,130.1999969482422,131.10000610351562,131.10000610351562,265400
2020-12-17,131.2899932861328,133.69000244140625,131.0,133.13999938964844,133.13999938964844,297700
2020-12-18,134.0,134.6699981689453,133.63999938964844,134.10000610351562,134.10000610351562,656300
2020-12-21,132.77999877929688,135.0,131.5,134.88999938964844,134.88999938964844,211700
2020-12-22,134.64999389648438,136.22000122070312,134.00999450683594,134.5,134.5,257300
2020-12-23,134.52000427246094,135.75,134.4499969482422,134.52999877929688,134.52999877929688,191600
2020-12-24,135.0,136.3699951171875,134.64999389648438,135.6999969482422,135.6999969482422,84200
2020-12-28,136.19000244140625,137.13999938964844,135.05999755859375,135.67999267578125,135.67999267578125,100400
2020-12-29,136.27000427246094,136.75,134.83999633789062,135.30999755859375,135.30999755859375,94400
2020-12-30,135.91000366210938,137.36000061035156,135.4600067138672,136.38999938964844,136.38999938964844,99000
2020-12-31,136.77000427246094,137.32000732421875,135.61000061035156,136.88999938964844,136.88999938964844,169800
2021-01-04,135.9199981689453,137.97000122070312,133.67999267578125,134.0,134.0,315700
2021-01-05,134.1300048828125,135.2899932861328,133.5399932861328,133.6999969482422,133.6999969482422,260500
2021-01-06,134.22000122070312,137.97000122070312,134.22000122070312,137.72000122070312,137.72000122070312,289300
2021-01-07,137.52000427246094,140.0,136.50999450683594,139.6999969482422,139.6999969482422,192400
2021-01-08,139.57000732421875,140.6199951171875,137.75999450683594,139.07000732421875,139.07000732421875,140600
